Smoothed Frequency Response
Resolution = 1/24 octave
Numpoints = 720
SamplingRate = 48000 Hz
Frequency(Hz)   Magnitude(dB)
   11.804	 92.7913
   11.929	 92.8190
   12.056	 92.8675
   12.184	 92.9191
   12.314	 92.9711
   12.445	 93.0235
   12.578	 93.0762
   12.711	 93.1293
   12.847	 93.1829
   12.983	 93.2367
   13.122	 93.2910
   13.261	 93.3456
   13.402	 93.4005
   13.545	 93.4557
   13.689	 93.5113
   13.835	 93.5672
   13.982	 93.6233
   14.131	 93.6798
   14.281	 93.7365
   14.433	 93.7934
   14.587	 93.8506
   14.742	 93.9080
   14.899	 93.9656
   15.057	 94.0234
   15.217	 94.0813
   15.379	 94.1394
   15.543	 94.1976
   15.708	 94.2558
   15.875	 94.3142
   16.044	 94.3725
   16.215	 94.4309
   16.388	 94.4893
   16.562	 94.5476
   16.738	 94.6058
   16.916	 94.6639
   17.096	 94.7219
   17.278	 94.7796
   17.462	 94.8372
   17.648	 94.8944
   17.836	 94.9514
   18.025	 95.0080
   18.217	 95.0642
   18.411	 95.1200
   18.607	 95.1752
   18.805	 95.2299
   19.005	 95.2841
   19.207	 95.3375
   19.412	 95.3902
   19.618	 95.4421
   19.827	 95.4932
   20.038	 95.5433
   20.251	 95.5925
   20.467	 95.6405
   20.684	 95.6874
   20.905	 95.7331
   21.127	 95.7775
   21.352	 95.8205
   21.579	 95.8620
   21.809	 95.9019
   22.041	 95.9401
   22.275	 95.9765
   22.512	 96.0110
   22.752	 96.0435
   22.994	 96.0739
   23.239	 96.1021
   23.486	 96.1284
   23.736	 96.1536
   23.988	 96.1784
   24.244	 96.2029
   24.501	 96.2272
   24.762	 96.2513
   25.026	 96.2751
   25.292	 96.2986
   25.561	 96.3219
   25.833	 96.3449
   26.108	 96.3676
   26.386	 96.3900
   26.667	 96.4120
   26.950	 96.4337
   27.237	 96.4550
   27.527	 96.4760
   27.820	 96.4965
   28.116	 96.5166
   28.415	 96.5363
   28.717	 96.5555
   29.023	 96.5743
   29.332	 96.5926
   29.644	 96.6103
   29.959	 96.6276
   30.278	 96.6442
   30.600	 96.6603
   30.926	 96.6758
   31.255	 96.6907
   31.587	 96.7049
   31.924	 96.7185
   32.263	 96.7314
   32.607	 96.7435
   32.953	 96.7549
   33.304	 96.7656
   33.658	 96.7754
   34.017	 96.7845
   34.379	 96.7926
   34.744	 96.7999
   35.114	 96.8069
   35.488	 96.8137
   35.865	 96.8206
   36.247	 96.8274
   36.633	 96.8338
   37.022	 96.8400
   37.416	 96.8459
   37.815	 96.8515
   38.217	 96.8567
   38.624	 96.8616
   39.035	 96.8662
   39.450	 96.8704
   39.870	 96.8742
   40.294	 96.8776
   40.723	 96.8807
   41.156	 96.8833
   41.594	 96.8856
   42.036	 96.8873
   42.484	 96.8887
   42.936	 96.8895
   43.393	 96.8899
   43.854	 96.8898
   44.321	 96.8891
   44.793	 96.8880
   45.269	 96.8862
   45.751	 96.8839
   46.238	 96.8811
   46.730	 96.8782
   47.227	 96.8754
   47.730	 96.8729
   48.237	 96.8701
   48.751	 96.8669
   49.269	 96.8632
   49.794	 96.8591
   50.323	 96.8545
   50.859	 96.8494
   51.400	 96.8437
   51.947	 96.8375
   52.500	 96.8308
   53.058	 96.8235
   53.623	 96.8156
   54.194	 96.8072
   54.770	 96.7981
   55.353	 96.7884
   55.942	 96.7780
   56.537	 96.7669
   57.139	 96.7552
   57.747	 96.7427
   58.361	 96.7289
   58.982	 96.7133
   59.610	 96.6959
   60.244	 96.6772
   60.885	 96.6576
   61.533	 96.6372
   62.188	 96.6161
   62.850	 96.5944
   63.518	 96.5721
   64.194	 96.5495
   64.877	 96.5266
   65.568	 96.5036
   66.265	 96.4805
   66.970	 96.4575
   67.683	 96.4347
   68.403	 96.4124
   69.131	 96.3907
   69.867	 96.3695
   70.610	 96.3486
   71.361	 96.3281
   72.121	 96.3078
   72.888	 96.2880
   73.664	 96.2685
   74.448	 96.2493
   75.240	 96.2301
   76.040	 96.2109
   76.849	 96.1915
   77.667	 96.1718
   78.494	 96.1516
   79.329	 96.1307
   80.173	 96.1090
   81.026	 96.0861
   81.888	 96.0618
   82.759	 96.0360
   83.640	 96.0089
   84.530	 95.9812
   85.430	 95.9529
   86.339	 95.9240
   87.257	 95.8944
   88.186	 95.8643
   89.124	 95.8335
   90.072	 95.8021
   91.031	 95.7700
   91.999	 95.7372
   92.978	 95.7039
   93.968	 95.6700
   94.968	 95.6355
   95.978	 95.6002
   96.999	 95.5639
   98.032	 95.5267
   99.075	 95.4889
  100.129	 95.4506
  101.194	 95.4120
  102.271	 95.3733
  103.359	 95.3347
  104.459	 95.2964
  105.571	 95.2588
  106.694	 95.2223
  107.829	 95.1870
  108.977	 95.1525
  110.136	 95.1186
  111.308	 95.0848
  112.492	 95.0506
  113.689	 95.0156
  114.899	 94.9792
  116.122	 94.9406
  117.357	 94.8982
  118.606	 94.8520
  119.868	 94.8029
  121.144	 94.7527
  122.433	 94.7017
  123.735	 94.6500
  125.052	 94.5979
  126.383	 94.5456
  127.727	 94.4932
  129.087	 94.4404
  130.460	 94.3872
  131.848	 94.3336
  133.251	 94.2797
  134.669	 94.2257
  136.102	 94.1716
  137.550	 94.1173
  139.014	 94.0641
  140.493	 94.0251
  141.988	 94.0101
  143.499	 94.0218
  145.026	 94.0486
  146.569	 94.0824
  148.129	 94.1159
  149.705	 94.1414
  151.298	 94.1493
  152.908	 94.1344
  154.535	 94.1011
  156.179	 94.0590
  157.841	 94.0148
  159.520	 93.9689
  161.218	 93.9214
  162.933	 93.8724
  164.667	 93.8224
  166.419	 93.7710
  168.190	 93.7180
  169.979	 93.6634
  171.788	 93.6083
  173.616	 93.5541
  175.463	 93.5056
  177.330	 93.4657
  179.217	 93.4341
  181.124	 93.4064
  183.052	 93.3791
  184.999	 93.3496
  186.968	 93.3161
  188.957	 93.2786
  190.968	 93.2380
  193.000	 93.1949
  195.054	 93.1494
  197.129	 93.1014
  199.227	 93.0506
  201.347	 92.9962
  203.489	 92.9377
  205.654	 92.8763
  207.843	 92.8155
  210.054	 92.7619
  212.289	 92.7199
  214.548	 92.6888
  216.831	 92.6625
  219.138	 92.6361
  221.470	 92.6072
  223.827	 92.5750
  226.208	 92.5399
  228.615	 92.5033
  231.048	 92.4664
  233.506	 92.4303
  235.991	 92.3954
  238.502	 92.3614
  241.040	 92.3276
  243.605	 92.2939
  246.197	 92.2600
  248.816	 92.2260
  251.464	 92.1920
  254.140	 92.1584
  256.844	 92.1274
  259.577	 92.1021
  262.339	 92.0829
  265.130	 92.0664
  267.952	 92.0473
  270.803	 92.0225
  273.684	 91.9923
  276.596	 91.9597
  279.540	 91.9275
  282.514	 91.8978
  285.520	 91.8708
  288.558	 91.8447
  291.629	 91.8117
  294.732	 91.7617
  297.868	 91.6927
  301.037	 91.6165
  304.241	 91.5563
  307.478	 91.5184
  310.750	 91.4968
  314.056	 91.4785
  317.398	 91.4608
  320.775	 91.4437
  324.189	 91.4259
  327.638	 91.4004
  331.124	 91.3627
  334.648	 91.3143
  338.209	 91.2645
  341.807	 91.2186
  345.444	 91.1777
  349.120	 91.1426
  352.835	 91.1154
  356.589	 91.0947
  360.384	 91.0771
  364.218	 91.0595
  368.094	 91.0413
  372.011	 91.0217
  375.969	 90.9974
  379.970	 90.9675
  384.013	 90.9355
  388.099	 90.9087
  392.228	 90.8884
  396.402	 90.8671
  400.620	 90.8350
  404.883	 90.7926
  409.191	 90.7544
  413.545	 90.7312
  417.945	 90.7193
  422.393	 90.7063
  426.887	 90.6873
  431.429	 90.6681
  436.020	 90.6578
  440.660	 90.6538
  445.348	 90.6338
  450.087	 90.5864
  454.876	 90.5260
  459.717	 90.4774
  464.608	 90.4468
  469.552	 90.4262
  474.548	 90.4102
  479.598	 90.3956
  484.701	 90.3809
  489.858	 90.3683
  495.071	 90.3621
  500.339	 90.3562
  505.663	 90.3329
  511.043	 90.2921
  516.481	 90.2567
  521.977	 90.2416
  527.531	 90.2321
  533.144	 90.2131
  538.817	 90.1941
  544.550	 90.1850
  550.345	 90.1806
  556.201	 90.1718
  562.119	 90.1617
  568.100	 90.1553
  574.145	 90.1500
  580.255	 90.1419
  586.429	 90.1342
  592.669	 90.1283
  598.975	 90.1168
  605.349	 90.1022
  611.790	 90.0993
  618.300	 90.1036
  624.879	 90.0972
  631.528	 90.0758
  638.248	 90.0541
  645.039	 90.0343
  651.903	 90.0088
  658.839	 89.9808
  665.850	 89.9740
  672.935	 89.9974
  680.095	 90.0238
  687.332	 90.0292
  694.645	 90.0110
  702.037	 90.0021
  709.507	 90.0074
  717.057	 90.0216
  724.686	 90.0373
  732.398	 90.0577
  740.191	 90.0872
  748.067	 90.0992
  756.027	 90.0887
  764.071	 90.0832
  772.201	 90.0991
  780.418	 90.1210
  788.722	 90.1214
  797.115	 90.1197
  805.597	 90.1207
  814.169	 90.1325
  822.832	 90.1725
  831.587	 90.2225
  840.436	 90.2693
  849.379	 90.2985
  858.417	 90.3377
  867.551	 90.3625
  876.782	 90.3851
  886.111	 90.4212
  895.540	 90.4935
  905.069	 90.5751
  914.700	 90.6484
  924.433	 90.7050
  934.269	 90.7533
  944.210	 90.7941
  954.257	 90.8371
  964.411	 90.9035
  974.673	 90.9896
  985.044	 91.0808
  995.526	 91.1590
 1006.119	 91.2254
 1016.824	 91.2725
 1027.644	 91.2831
 1038.579	 91.2871
 1049.630	 91.3431
 1060.799	 91.4666
 1072.086	 91.6232
 1083.494	 91.7643
 1095.023	 91.8911
 1106.674	 92.0230
 1118.450	 92.1446
 1130.351	 92.2493
 1142.379	 92.3413
 1154.534	 92.4491
 1166.819	 92.5717
 1179.235	 92.6852
 1191.783	 92.7875
 1204.464	 92.8790
 1217.280	 92.9753
 1230.233	 93.0850
 1243.323	 93.1893
 1256.553	 93.2780
 1269.923	 93.3553
 1283.436	 93.4393
 1297.093	 93.5181
 1310.895	 93.5979
 1324.843	 93.6698
 1338.940	 93.7605
 1353.188	 93.8503
 1367.586	 93.9305
 1382.138	 93.9941
 1396.845	 94.0532
 1411.708	 94.1360
 1426.730	 94.2242
 1441.911	 94.2968
 1457.254	 94.3602
 1472.760	 94.4376
 1488.431	 94.5226
 1504.269	 94.5987
 1520.275	 94.6542
 1536.452	 94.7176
 1552.801	 94.7957
 1569.323	 94.8680
 1586.022	 94.9300
 1602.898	 94.9822
 1619.954	 95.0407
 1637.191	 95.1008
 1654.612	 95.1734
 1672.218	 95.2536
 1690.011	 95.3353
 1707.994	 95.3895
 1726.168	 95.4615
 1744.536	 95.5244
 1763.099	 95.6186
 1781.859	 95.6721
 1800.819	 95.7582
 1819.981	 95.8259
 1839.347	 95.9238
 1858.918	 96.0033
 1878.698	 96.0797
 1898.689	 96.1740
 1918.892	 96.2521
 1939.310	 96.3279
 1959.946	 96.3870
 1980.801	 96.4547
 2001.878	 96.5079
 2023.179	 96.5707
 2044.707	 96.6503
 2066.464	 96.7560
 2088.452	 96.8494
 2110.674	 96.9285
 2133.133	 97.0295
 2155.831	 97.1000
 2178.771	 97.1843
 2201.954	 97.2345
 2225.384	 97.3091
 2249.063	 97.3640
 2272.995	 97.4321
 2297.181	 97.5012
 2321.624	 97.5816
 2346.328	 97.6496
 2371.294	 97.7177
 2396.526	 97.7767
 2422.027	 97.8316
 2447.798	 97.8890
 2473.844	 97.9395
 2500.168	 97.9852
 2526.771	 98.0330
 2553.657	 98.0845
 2580.830	 98.1499
 2608.291	 98.1903
 2636.045	 98.2226
 2664.094	 98.2439
 2692.442	 98.2791
 2721.091	 98.3057
 2750.045	 98.3224
 2779.307	 98.3374
 2808.881	 98.3550
 2838.769	 98.3744
 2868.975	 98.3814
 2899.503	 98.3855
 2930.355	 98.3812
 2961.536	 98.3851
 2993.049	 98.3799
 3024.896	 98.3700
 3057.083	 98.3410
 3089.612	 98.3195
 3122.488	 98.2968
 3155.713	 98.2817
 3189.292	 98.2478
 3223.228	 98.2110
 3257.525	 98.1905
 3292.187	 98.1851
 3327.218	 98.1647
 3362.621	 98.1262
 3398.402	 98.0854
 3434.563	 98.0361
 3471.108	 97.9936
 3508.043	 97.9577
 3545.371	 97.9326
 3583.096	 97.8795
 3621.222	 97.8312
 3659.754	 97.7962
 3698.696	 97.7674
 3738.052	 97.7205
 3777.827	 97.6733
 3818.026	 97.6386
 3858.652	 97.6033
 3899.710	 97.5513
 3941.206	 97.4899
 3983.142	 97.4331
 4025.525	 97.3807
 4068.360	 97.3448
 4111.649	 97.3144
 4155.400	 97.2663
 4199.616	 97.1968
 4244.302	 97.1285
 4289.464	 97.0876
 4335.106	 97.0610
 4381.235	 97.0325
 4427.854	 96.9781
 4474.969	 96.9192
 4522.585	 96.8650
 4570.708	 96.8217
 4619.343	 96.7593
 4668.496	 96.6913
 4718.171	 96.6068
 4768.376	 96.5094
 4819.114	 96.4086
 4870.393	 96.3161
 4922.216	 96.2200
 4974.592	 96.0984
 5027.524	 95.9685
 5081.021	 95.8335
 5135.085	 95.6938
 5189.726	 95.5433
 5244.948	 95.3814
 5300.757	 95.2057
 5357.161	 95.0220
 5414.164	 94.8284
 5471.774	 94.6403
 5529.997	 94.4461
 5588.839	 94.2537
 5648.308	 94.0374
 5708.409	 93.8259
 5769.150	 93.6170
 5830.538	 93.4463
 5892.578	 93.2818
 5955.279	 93.1245
 6018.646	 92.9561
 6082.688	 92.7837
 6147.412	 92.6256
 6212.824	 92.4491
 6278.932	 92.2915
 6345.744	 92.1532
 6413.267	 92.0465
 6481.507	 91.9427
 6550.475	 91.8451
 6620.176	 91.7637
 6690.619	 91.6938
 6761.811	 91.6441
 6833.760	 91.6123
 6906.476	 91.6004
 6979.965	 91.6055
 7054.236	 91.6315
 7129.297	 91.6829
 7205.157	 91.7506
 7281.825	 91.8467
 7359.308	 91.9607
 7437.615	 92.1048
 7516.756	 92.2747
 7596.739	 92.4675
 7677.572	 92.6862
 7759.267	 92.9332
 7841.830	 93.2013
 7925.271	 93.4924
 8009.601	 93.8088
 8094.828	 94.1426
 8180.962	 94.5163
 8268.013	 94.8986
 8355.989	 95.2990
 8444.902	 95.6665
 8534.761	 95.9873
 8625.576	 96.1964
 8717.357	 96.2477
 8810.115	 96.1214
 8903.860	 95.7857
 8998.603	 95.2362
 9094.354	 94.4805
 9191.123	 93.6079
 9288.922	 92.6580
 9387.762	 91.6955
 9487.653	 90.7258
 9588.607	 89.8208
 9690.636	 88.9375
 9793.750	 88.1124
 9897.962	 87.3479
10003.282	 86.6559
10109.723	 86.0113
10217.297	 85.4031
10326.015	 84.8324
10435.890	 84.3031
10546.934	 83.8013
10659.160	 83.3160
10772.580	 82.8703
10887.206	 82.4908
11003.053	 82.1462
11120.132	 81.8125
11238.457	 81.5562
11358.041	 81.4206
11478.897	 81.4901
11601.040	 81.7943
11724.481	 82.4623
11849.237	 83.5069
11975.320	 84.7300
12102.745	 85.9467
12231.525	 86.9981
12361.677	 87.8534
12493.212	 88.5522
12626.147	 89.1592
12760.497	 89.7985
12896.277	 90.5187
13033.501	 91.3904
13172.186	 92.4311
13312.346	 93.6276
13453.997	 94.8317
13597.155	 95.7843
13741.838	 96.2001
13888.059	 95.9377
14035.836	 95.0211
14185.187	 93.6433
14336.125	 92.1075
14488.670	 90.6236
14642.839	 89.3296
14798.647	 88.2280
14956.113	 87.3189
15115.256	 86.5578
15276.091	 85.9468
15438.638	 85.4724
15602.915	 85.1308
15768.939	 84.9188
15936.730	 84.8269
16106.307	 84.8441
16277.688	 84.9330
16450.893	 85.0357
16625.939	 85.0293
16802.850	 84.7438
16981.643	 84.0904
17162.336	 83.2481
17344.955	 82.4286
17529.516	 81.6992
17716.039	 80.8156
17904.549	 79.7797
18095.064	 78.7030
18287.607	 77.6934
18482.199	 76.8106
18678.859	 76.1269
18877.615	 75.6709
19078.484	 75.4601
19281.490	 75.4441
19486.656	 75.5965
19694.008	 75.8114
19903.563	 76.0097
20115.350	 76.0784
20329.389	 75.9773
20545.705	 75.6628
20764.324	 75.1106
20985.270	 74.2477
21208.564	 73.0157
21434.236	 71.2898
21662.311	 68.9764
21892.811	 65.8275
22125.764	 61.7419
22361.195	 56.3307
22599.131	 50.0724
22839.600	 44.5654
23082.627	 42.2356
23328.240	 41.6444
23576.467	 41.2426
23827.334	 41.1403
