* Measurement data measured by REW V5.20.13
* Source: Analog (1+2)(2- RME ADI-2 Pro), LINE_IN (마스), L, volume: 0.250. Timing signal peak level -24.6 dBFS, measurement signal peak level -24.5 dBFS
* Format: 128k Log Swept Sine, 1 sweep at -12.0 dBFS using an acoustic timing reference
* Dated: 2023. 1. 5 오후 1:40:47
* REW Settings:
*  C-weighting compensation: Off
*  Target level: 75.0 dB
* Note: Delay -0.1893 ms (-65 mm, -2.56 in) using estimated IR delay relative to Acoustic reference played from HEADPHONE L with no timing offset Clock adjustment: 27.9 ppm
* Measurement: L (정착용)
* Smoothing: 1/24 octave
* Frequency Step: 1/48 octave
* Start Frequency: 20.000 Hz
*
* Freq(Hz)	SPL(dB)	Phase(degrees)
20.000000	76.079	-68.8992
20.299999	76.564	-73.3445
20.600000	76.964	-77.6798
20.900000	77.305	-81.6719
21.200001	77.625	-85.2350
21.400000	77.844	-87.4222
21.799999	78.301	-91.5175
22.000000	78.537	-93.5095
22.400000	79.007	-97.4965
22.700001	79.339	-100.4716
23.000000	79.648	-103.3651
23.299999	79.936	-106.1166
23.600000	80.209	-108.7009
24.000000	80.560	-111.8863
24.299999	80.822	-114.1135
24.700001	81.175	-116.9443
25.000000	81.445	-119.0427
25.400000	81.802	-121.9186
25.799999	82.134	-124.9448
26.200001	82.420	-128.0344
26.500000	82.606	-130.2759
26.900000	82.839	-133.0662
27.200001	83.023	-135.0489
27.600000	83.291	-137.7282
28.000000	83.562	-140.6506
28.500000	83.843	-144.5524
29.000000	84.065	-148.1637
29.500000	84.322	-151.2639
30.000000	84.666	-154.4766
30.400000	84.938	-157.5357
30.700001	85.094	-160.0217
31.100000	85.226	-163.1249
31.500000	85.330	-165.6375
32.000000	85.540	-168.2171
32.500000	85.822	-171.2193
33.000000	85.988	-174.8847
33.500000	85.965	-177.9306
34.000000	85.962	-179.3823
34.500000	86.202	179.4886
35.000000	86.537	176.7448
35.500000	86.622	172.6389
36.000000	86.400	169.6375
36.500000	86.196	168.9994
37.000000	86.325	168.8453
37.500000	86.580	166.9039
38.200001	86.533	163.1322
38.700001	86.403	162.7458
39.500000	86.940	162.6976
40.000000	87.314	159.5416
40.599998	87.249	155.0810
41.200001	87.008	154.3200
41.799999	87.282	155.0823
42.500000	87.807	152.1387
43.099998	87.757	148.5710
43.700001	87.598	148.1139
44.400002	87.967	148.5959
45.000000	88.371	145.9270
45.500000	88.388	142.8893
46.200001	88.176	141.1437
46.799999	88.272	141.1745
47.500000	88.570	139.2756
48.200001	88.587	136.2979
48.700001	88.496	135.1899
49.400002	88.540	134.6662
50.000000	88.706	133.6386
50.799999	88.868	131.6857
51.500000	89.065	130.3364
52.200001	89.388	128.1693
53.000000	89.618	123.9379
53.799999	89.561	119.8367
54.500000	89.452	117.2066
55.200001	89.349	114.8220
56.000000	89.148	112.4661
57.000000	88.860	111.0882
58.000000	88.710	110.7069
59.000000	88.695	110.6499
60.000000	88.813	110.2525
60.799999	88.921	109.4372
61.500000	89.008	108.5677
62.200001	89.093	107.5359
63.000000	89.154	106.1703
64.000000	89.164	104.7302
65.000000	89.196	103.8778
66.000000	89.292	103.0195
67.000000	89.369	101.9599
68.000000	89.429	101.1491
69.000000	89.531	100.3561
70.000000	89.624	99.2600
71.000000	89.679	98.2209
72.000000	89.746	97.3739
73.000000	89.837	96.4946
74.000000	89.926	95.4976
75.000000	89.995	94.5056
76.199997	90.070	93.4562
77.500000	90.167	92.3468
78.800003	90.261	91.1006
80.000000	90.333	89.9496
81.199997	90.410	88.8803
82.500000	90.501	87.6880
83.800003	90.569	86.4782
85.000000	90.616	85.5175
86.199997	90.675	84.5926
87.500000	90.729	83.4439
88.500000	90.752	82.5893
90.000000	90.795	81.4685
91.199997	90.845	80.5587
92.500000	90.892	79.5596
93.800003	90.931	78.6349
95.000000	90.963	77.8315
96.199997	90.993	77.0742
97.500000	91.032	76.2536
98.800003	91.069	75.3834
100.000000	91.097	74.6054
101.500000	91.135	73.7255
103.000000	91.181	72.8766
104.400002	91.219	72.0813
106.000000	91.256	71.1806
107.500000	91.284	70.3439
109.000000	91.310	69.5287
110.599998	91.340	68.6948
112.000000	91.367	67.9957
113.800003	91.402	67.1544
115.000000	91.425	66.6120
117.199997	91.466	65.6660
118.000000	91.483	65.3224
120.599998	91.533	64.1384
122.000000	91.552	63.5067
124.099998	91.580	62.5945
125.000000	91.591	62.2079
126.500000	91.608	61.5887
128.000000	91.624	61.0040
131.500000	91.659	59.6629
132.000000	91.662	59.4739
134.000000	91.670	58.7606
136.000000	91.682	58.1020
138.000000	91.699	57.4582
140.000000	91.715	56.8392
143.000000	91.735	55.9582
145.000000	91.749	55.3714
147.500000	91.765	54.6433
150.000000	91.775	53.9196
152.500000	91.771	53.2102
155.000000	91.760	52.5913
157.500000	91.755	52.1024
160.000000	91.766	51.7231
162.500000	91.792	51.3357
165.000000	91.824	50.8840
167.500000	91.856	50.3782
170.000000	91.884	49.8496
172.500000	91.911	49.2722
175.000000	91.929	48.6505
177.500000	91.940	48.0450
180.000000	91.944	47.4778
182.500000	91.942	46.9597
185.000000	91.936	46.4738
187.500000	91.925	46.0026
190.000000	91.910	45.5566
192.500000	91.895	45.1589
195.000000	91.885	44.8177
197.500000	91.886	44.5117
200.000000	91.894	44.1935
203.000000	91.905	43.7361
206.000000	91.907	43.1757
209.000000	91.895	42.5648
212.000000	91.862	41.9734
214.000000	91.826	41.6198
218.000000	91.726	41.1147
220.000000	91.670	41.0168
224.000000	91.582	41.1590
227.000000	91.558	41.4220
230.000000	91.572	41.6685
233.000000	91.613	41.8128
236.000000	91.667	41.7951
240.000000	91.738	41.5304
243.000000	91.780	41.1914
247.000000	91.820	40.6183
250.000000	91.838	40.1198
254.000000	91.842	39.4103
258.000000	91.826	38.6950
262.000000	91.789	37.9913
265.000000	91.746	37.4839
269.000000	91.669	36.8323
272.000000	91.591	36.3849
276.000000	91.459	35.9154
280.000000	91.296	35.6844
285.000000	91.065	35.9766
290.000000	90.876	37.1822
295.000000	90.862	38.8406
300.000000	90.998	39.6980
304.000000	91.083	39.7193
307.000000	91.113	39.6364
311.000000	91.129	39.5597
315.000000	91.136	39.5212
320.000000	91.143	39.4871
325.000000	91.150	39.4216
330.000000	91.156	39.3207
335.000000	91.155	39.1816
340.000000	91.145	39.0009
345.000000	91.126	38.8072
350.000000	91.095	38.6055
355.000000	91.055	38.3796
360.000000	91.003	38.1365
365.000000	90.936	37.9170
370.000000	90.852	37.7334
375.000000	90.747	37.5867
382.000000	90.560	37.5905
387.000000	90.404	37.8821
395.000000	90.170	38.9736
400.000000	90.069	39.9442
406.000000	90.005	41.1565
412.000000	89.983	42.2219
418.000000	89.975	43.0876
425.000000	89.966	43.9514
431.000000	89.962	44.6584
437.000000	89.962	45.3466
444.000000	89.967	46.0886
450.000000	89.972	46.6658
455.000000	89.973	47.1079
462.000000	89.964	47.6721
468.000000	89.947	48.1408
475.000000	89.913	48.7268
482.000000	89.872	49.3937
487.000000	89.843	49.9331
494.000000	89.808	50.7736
500.000000	89.787	51.5568
508.000000	89.779	52.6558
515.000000	89.790	53.5984
522.000000	89.814	54.4618
530.000000	89.847	55.3380
538.000000	89.879	56.1408
545.000000	89.907	56.7995
552.000000	89.932	57.3987
560.000000	89.954	58.0234
570.000000	89.971	58.7784
580.000000	89.982	59.4895
590.000000	89.966	60.2031
600.000000	89.937	61.0636
608.000000	89.915	61.8165
615.000000	89.901	62.4956
622.000000	89.890	63.1859
630.000000	89.879	63.9797
640.000000	89.865	64.9799
650.000000	89.846	65.9973
660.000000	89.829	67.0369
670.000000	89.817	68.0937
680.000000	89.809	69.1501
690.000000	89.800	70.1502
700.000000	89.780	71.0520
710.000000	89.733	71.8964
720.000000	89.648	72.8087
730.000000	89.519	73.9726
740.000000	89.362	75.6051
750.000000	89.220	77.8351
762.000000	89.142	81.1919
775.000000	89.229	85.1122
788.000000	89.479	88.5914
800.000000	89.784	91.0321
812.000000	90.083	92.7562
825.000000	90.357	94.1538
838.000000	90.579	95.4468
850.000000	90.769	96.7322
862.000000	90.973	98.0276
875.000000	91.213	99.2588
885.000000	91.401	100.0305
900.000000	91.664	100.9227
912.000000	91.847	101.4877
925.000000	92.018	102.0648
938.000000	92.173	102.6552
950.000000	92.308	103.1847
962.000000	92.434	103.6856
975.000000	92.558	104.2112
988.000000	92.667	104.7407
1000.000000	92.759	105.2681
1015.000000	92.870	105.9883
1030.000000	92.980	106.7270
1044.000000	93.082	107.3938
1060.000000	93.193	108.1089
1075.000000	93.284	108.7443
1090.000000	93.360	109.3856
1106.000000	93.428	110.1102
1120.000000	93.476	110.8027
1138.000000	93.530	111.8047
1150.000000	93.564	112.5502
1172.000000	93.636	114.0704
1180.000000	93.666	114.6572
1206.000000	93.787	116.5909
1220.000000	93.860	117.6133
1241.000000	93.974	119.1358
1250.000000	94.026	119.7966
1265.000000	94.119	120.9100
1280.000000	94.222	122.0167
1315.000000	94.498	124.3902
1320.000000	94.541	124.6873
1340.000000	94.711	125.7231
1360.000000	94.861	126.5058
1380.000000	94.962	127.1272
1400.000000	95.001	127.8883
1430.000000	95.038	129.8309
1450.000000	95.115	131.3825
1475.000000	95.252	133.2086
1500.000000	95.403	134.8974
1525.000000	95.558	136.4679
1550.000000	95.710	137.9611
1575.000000	95.857	139.4339
1600.000000	96.004	140.8901
1625.000000	96.151	142.3239
1650.000000	96.298	143.7486
1675.000000	96.448	145.1500
1700.000000	96.602	146.5262
1725.000000	96.757	147.8579
1750.000000	96.911	149.1428
1775.000000	97.063	150.3943
1800.000000	97.215	151.6159
1825.000000	97.367	152.7981
1850.000000	97.516	153.9440
1875.000000	97.662	155.0552
1900.000000	97.804	156.1362
1925.000000	97.943	157.2000
1950.000000	98.079	158.2568
1975.000000	98.213	159.3067
2000.000000	98.345	160.3460
2030.000000	98.501	161.5816
2060.000000	98.657	162.8157
2090.000000	98.814	164.0509
2120.000000	98.976	165.2756
2140.000000	99.087	166.0841
2180.000000	99.327	167.6651
2200.000000	99.456	168.3817
2240.000000	99.712	169.6031
2270.000000	99.891	170.3948
2300.000000	100.060	171.1496
2330.000000	100.228	171.9043
2360.000000	100.406	172.6191
2400.000000	100.658	173.3706
2430.000000	100.846	173.7155
2470.000000	101.078	173.8873
2500.000000	101.232	173.8221
2540.000000	101.402	173.5000
2580.000000	101.526	172.9450
2620.000000	101.596	172.1971
2650.000000	101.607	171.5477
2690.000000	101.564	170.6301
2720.000000	101.486	169.9472
2760.000000	101.319	169.1148
2800.000000	101.084	168.4711
2850.000000	100.709	168.0707
2900.000000	100.262	168.1750
2950.000000	99.754	168.7674
3000.000000	99.179	169.9806
3040.000000	98.686	171.5553
3070.000000	98.313	173.0864
3110.000000	97.819	175.5523
3150.000000	97.330	178.5074
3200.000000	96.740	-177.0172
3250.000000	96.207	-171.5847
3300.000000	95.790	-165.2289
3350.000000	95.554	-158.2203
3400.000000	95.539	-151.0664
3450.000000	95.735	-144.3141
3500.000000	96.092	-138.3792
3550.000000	96.546	-133.5062
3600.000000	97.035	-129.7684
3650.000000	97.504	-127.0905
3700.000000	97.911	-125.3060
3750.000000	98.232	-124.1984
3820.000000	98.510	-123.3710
3870.000000	98.580	-123.0060
3950.000000	98.483	-122.2454
4000.000000	98.316	-121.4087
4060.000000	98.044	-119.8873
4120.000000	97.730	-117.7885
4180.000000	97.398	-115.1977
4250.000000	97.004	-111.6715
4310.000000	96.663	-108.2735
4370.000000	96.321	-104.5573
4440.000000	95.918	-99.8328
4500.000000	95.565	-95.4164
4550.000000	95.264	-91.4210
4620.000000	94.835	-85.2394
4680.000000	94.459	-79.2369
4750.000000	94.033	-70.9463
4820.000000	93.735	-60.7569
4870.000000	93.731	-52.3236
4940.000000	94.226	-39.7171
5000.000000	95.184	-29.5785
5080.000000	96.961	-19.6601
5150.000000	98.533	-15.5203
5220.000000	99.852	-14.6095
5300.000000	101.061	-15.5639
5380.000000	101.996	-17.8268
5450.000000	102.604	-20.3971
5520.000000	103.071	-23.2038
5600.000000	103.485	-26.8899
5700.000000	103.754	-32.9199
5800.000000	103.547	-40.1236
5900.000000	102.789	-46.6283
6000.000000	101.608	-50.9182
6080.000000	100.493	-52.5859
6150.000000	99.447	-52.9512
6220.000000	98.349	-52.3570
6300.000000	97.049	-50.4894
6400.000000	95.409	-46.4459
6500.000000	93.818	-40.8617
6600.000000	92.297	-34.2486
6700.000000	90.814	-26.9611
6800.000000	89.274	-19.1098
6900.000000	87.511	-9.2158
7000.000000	85.591	5.0240
7100.000000	83.948	24.3975
7200.000000	83.272	46.6932
7300.000000	83.728	67.1826
7400.000000	84.678	83.5223
7500.000000	85.742	96.5259
7620.000000	87.025	108.6797
7750.000000	88.290	118.5584
7880.000000	89.391	126.0141
8000.000000	90.260	131.2347
8120.000000	90.996	135.1184
8250.000000	91.647	137.8016
8380.000000	92.093	138.6737
8500.000000	92.240	137.8499
8620.000000	92.045	135.7335
8750.000000	91.358	132.5977
8850.000000	90.443	130.1986
9000.000000	88.384	127.8832
9120.000000	86.107	128.1517
9250.000000	82.875	133.4562
9380.000000	78.622	155.5794
9500.000000	74.751	-155.0087
9620.000000	75.921	-97.9886
9750.000000	79.858	-64.1686
9880.000000	82.972	-52.0023
10000.000000	85.195	-46.8073
10150.000000	87.423	-42.9282
10300.000000	89.165	-41.3650
10440.000000	90.285	-42.0154
10600.000000	90.865	-43.7733
10750.000000	90.790	-44.0863
10900.000000	90.328	-41.3871
11060.000000	89.749	-34.9751
11200.000000	89.399	-27.3066
11380.000000	89.313	-16.3461
11500.000000	89.488	-9.2319
11720.000000	90.147	1.5306
11800.000000	90.424	4.3119
12060.000000	90.930	8.7595
12200.000000	90.707	10.1768
12410.000000	89.944	15.3026
12500.000000	89.631	18.5113
12650.000000	89.227	24.2150
12800.000000	88.935	29.7371
13150.000000	88.497	40.9712
13200.000000	88.467	42.3101
13400.000000	88.451	46.3469
13600.000000	88.514	47.3730
13800.000000	88.478	44.8337
14000.000000	88.206	39.2051
14300.000000	87.398	27.4494
14500.000000	86.826	18.7847
14750.000000	86.391	8.1556
15000.000000	86.408	-1.6938
15250.000000	86.587	-10.1689
15500.000000	86.651	-14.6901
15750.000000	86.940	-13.4519
16000.000000	88.055	-9.4139
16250.000000	89.599	-9.5847
16500.000000	90.463	-16.1749
16750.000000	90.218	-23.8956
17000.000000	89.075	-27.6064
17250.000000	87.422	-25.2681
17500.000000	85.762	-17.3475
17750.000000	84.519	-6.4949
18000.000000	83.734	5.3648
18250.000000	83.526	17.2836
18500.000000	83.878	25.3214
18750.000000	84.027	27.2930
19000.000000	83.434	26.6263
19250.000000	82.103	28.1017
19500.000000	80.477	33.9851
19750.000000	79.352	41.1927
20000.000000	78.989	44.8534
