* Measurement data measured by REW V5.20.13
* Source: EXCL: Microphone(High Definition Audio Device), MICROPHONE (마스), R, volume: 1.000
* Format: 256k Log Swept Sine, 1 sweep at -12.0 dBFS with no timing reference
* Dated: 2023. 2. 22 오후 10:07:49
* REW Settings:
*  C-weighting compensation: Off
*  Target level: 75.0 dB
* Note: 
* Measurement: R_Deep
* Smoothing: 1/24 octave
* Frequency Step: 1/48 octave
* Start Frequency: 20.300 Hz
*
* Freq(Hz)	SPL(dB)	Phase(degrees)
20.299999	97.966	-177.2836
20.600000	97.972	-177.3746
20.900000	97.982	-177.5411
21.200001	97.988	-177.7131
21.400000	97.990	-177.8379
21.799999	97.985	-178.1234
22.000000	97.980	-178.2835
22.400000	97.966	-178.6209
22.700001	97.952	-178.8738
23.000000	97.940	-179.1207
23.299999	97.930	-179.3693
23.600000	97.925	-179.6310
24.000000	97.924	179.9854
24.299999	97.926	179.6721
24.700001	97.931	179.2373
25.000000	97.933	178.9167
25.400000	97.936	178.5174
25.799999	97.942	178.1606
26.200001	97.952	177.8382
26.500000	97.961	177.6069
26.900000	97.972	177.3001
27.200001	97.978	177.0706
27.600000	97.981	176.7751
28.000000	97.980	176.5064
28.500000	97.977	176.2151
29.000000	97.973	175.9505
29.500000	97.969	175.6720
30.000000	97.962	175.3491
30.400000	97.954	175.0621
30.700001	97.946	174.8408
31.100000	97.932	174.5514
31.500000	97.915	174.2744
32.000000	97.894	173.9416
32.500000	97.877	173.6100
33.000000	97.866	173.2658
33.500000	97.860	172.9063
34.000000	97.856	172.5432
34.500000	97.850	172.1947
35.000000	97.845	171.8758
35.500000	97.843	171.5847
36.000000	97.844	171.2966
36.500000	97.845	170.9914
37.000000	97.840	170.6756
37.500000	97.829	170.3726
38.200001	97.808	169.9927
38.700001	97.793	169.7371
39.500000	97.770	169.3011
40.000000	97.752	169.0126
40.599998	97.729	168.6718
41.200001	97.707	168.3411
41.799999	97.690	168.0072
42.500000	97.673	167.6088
43.099998	97.661	167.2715
43.700001	97.650	166.9404
44.400002	97.634	166.5534
45.000000	97.617	166.2284
45.500000	97.603	165.9759
46.200001	97.585	165.6549
46.799999	97.572	165.3964
47.500000	97.559	165.0843
48.200001	97.544	164.7481
48.700001	97.531	164.5067
49.400002	97.513	164.1846
50.000000	97.500	163.9042
50.799999	97.486	163.4985
51.500000	97.467	163.1543
52.200001	97.447	162.8413
53.000000	97.427	162.4774
53.799999	97.402	162.1114
54.500000	97.379	161.8254
55.200001	97.362	161.5463
56.000000	97.345	161.1924
57.000000	97.311	160.7542
58.000000	97.278	160.3664
59.000000	97.245	159.9845
60.000000	97.207	159.5879
60.799999	97.174	159.2691
61.500000	97.145	159.0114
62.200001	97.117	158.7714
63.000000	97.087	158.4976
64.000000	97.055	158.1541
65.000000	97.026	157.7921
66.000000	96.994	157.3934
67.000000	96.958	157.0060
68.000000	96.923	156.6304
69.000000	96.887	156.2545
70.000000	96.850	155.8777
71.000000	96.810	155.5089
72.000000	96.769	155.1706
73.000000	96.729	154.8800
74.000000	96.697	154.6097
75.000000	96.667	154.2850
76.199997	96.622	153.8890
77.500000	96.574	153.4916
78.800003	96.521	153.0762
80.000000	96.472	152.7246
81.199997	96.429	152.3593
82.500000	96.385	151.9650
83.800003	96.342	151.6005
85.000000	96.299	151.2744
86.199997	96.254	150.9974
87.500000	96.210	150.6685
88.500000	96.174	150.3799
90.000000	96.119	149.9439
91.199997	96.071	149.6243
92.500000	96.022	149.3395
93.800003	95.979	149.0673
95.000000	95.936	148.8060
96.199997	95.889	148.5548
97.500000	95.839	148.2851
98.800003	95.790	147.9988
100.000000	95.743	147.7225
101.500000	95.684	147.3951
103.000000	95.625	147.0801
104.400002	95.568	146.8076
106.000000	95.509	146.4987
107.500000	95.457	146.1645
109.000000	95.406	145.8309
110.599998	95.353	145.5045
112.000000	95.303	145.2397
113.800003	95.232	144.9541
115.000000	95.187	144.7838
117.199997	95.115	144.3844
118.000000	95.091	144.2205
120.599998	95.007	143.7055
122.000000	94.956	143.5036
124.099998	94.875	143.2741
125.000000	94.841	143.1774
126.500000	94.786	142.9659
128.000000	94.729	142.7100
131.500000	94.613	142.1490
132.000000	94.598	142.0677
134.000000	94.537	141.7811
136.000000	94.474	141.5095
138.000000	94.399	141.2538
140.000000	94.324	141.0484
143.000000	94.217	140.7226
145.000000	94.149	140.4888
147.500000	94.072	140.1827
150.000000	93.996	139.9203
152.500000	93.918	139.6764
155.000000	93.831	139.4399
157.500000	93.746	139.2716
160.000000	93.670	139.1072
162.500000	93.597	138.8728
165.000000	93.520	138.5742
167.500000	93.444	138.3249
170.000000	93.369	138.1384
172.500000	93.289	137.9706
175.000000	93.204	137.7859
177.500000	93.122	137.6000
180.000000	93.046	137.3972
182.500000	92.966	137.2289
185.000000	92.889	137.1167
187.500000	92.814	137.0284
190.000000	92.745	136.9163
192.500000	92.676	136.7698
195.000000	92.605	136.6070
197.500000	92.532	136.4492
200.000000	92.459	136.3476
203.000000	92.375	136.2995
206.000000	92.297	136.2244
209.000000	92.218	136.0895
212.000000	92.145	136.0101
214.000000	92.096	135.9602
218.000000	91.987	135.8627
220.000000	91.935	135.8212
224.000000	91.837	135.7262
227.000000	91.756	135.6679
230.000000	91.668	135.6583
233.000000	91.587	135.6417
236.000000	91.513	135.5553
240.000000	91.410	135.4962
243.000000	91.334	135.4750
247.000000	91.242	135.3252
250.000000	91.160	135.2440
254.000000	91.045	135.2742
258.000000	90.960	135.3576
262.000000	90.874	135.4403
265.000000	90.798	135.4563
269.000000	90.708	135.4749
272.000000	90.641	135.5001
276.000000	90.543	135.5755
280.000000	90.456	135.6545
285.000000	90.348	135.7772
290.000000	90.240	136.0206
295.000000	90.125	136.2238
300.000000	90.022	136.4280
304.000000	89.953	136.7475
307.000000	89.906	137.0423
311.000000	89.849	137.4160
315.000000	89.802	137.8059
320.000000	89.772	138.2897
325.000000	89.788	138.6144
330.000000	89.801	138.6014
335.000000	89.779	138.2476
340.000000	89.726	137.8118
345.000000	89.656	137.6183
350.000000	89.568	137.6032
355.000000	89.472	137.6088
360.000000	89.377	137.5548
365.000000	89.291	137.5182
370.000000	89.214	137.5489
375.000000	89.138	137.6667
382.000000	89.038	137.8494
387.000000	88.965	137.9536
395.000000	88.807	138.1522
400.000000	88.720	138.2675
406.000000	88.644	138.4236
412.000000	88.556	138.6927
418.000000	88.471	138.9435
425.000000	88.372	139.2255
431.000000	88.291	139.4386
437.000000	88.222	139.5974
444.000000	88.145	139.7907
450.000000	88.071	140.0292
455.000000	88.002	140.2474
462.000000	87.917	140.5344
468.000000	87.859	140.7339
475.000000	87.802	140.9435
482.000000	87.735	141.1555
487.000000	87.682	141.3335
494.000000	87.609	141.6814
500.000000	87.551	142.0480
508.000000	87.468	142.4294
515.000000	87.394	142.7460
522.000000	87.327	143.1212
530.000000	87.250	143.4676
538.000000	87.174	143.8520
545.000000	87.118	144.2426
552.000000	87.062	144.5639
560.000000	86.987	144.8911
570.000000	86.907	145.4537
580.000000	86.852	145.9790
590.000000	86.795	146.4956
600.000000	86.708	147.0587
608.000000	86.631	147.3831
615.000000	86.576	147.6208
622.000000	86.527	147.9343
630.000000	86.476	148.3919
640.000000	86.424	148.9107
650.000000	86.371	149.4485
660.000000	86.318	150.0929
670.000000	86.259	150.7580
680.000000	86.196	151.3528
690.000000	86.149	151.9407
700.000000	86.117	152.5126
710.000000	86.087	153.0588
720.000000	86.036	153.6725
730.000000	85.981	154.3450
740.000000	85.949	155.0089
750.000000	85.930	155.6535
762.000000	85.920	156.3819
775.000000	85.901	157.1448
788.000000	85.871	157.9415
800.000000	85.846	158.6729
812.000000	85.819	159.4138
825.000000	85.813	160.2953
838.000000	85.828	161.0338
850.000000	85.835	161.7797
862.000000	85.845	162.6130
875.000000	85.868	163.3925
885.000000	85.882	163.8832
900.000000	85.907	164.6042
912.000000	85.929	165.3157
925.000000	85.966	165.9875
938.000000	86.025	166.5649
950.000000	86.080	167.1217
962.000000	86.134	167.6529
975.000000	86.197	168.1761
988.000000	86.248	168.6622
1000.000000	86.292	169.0812
1015.000000	86.358	169.5670
1030.000000	86.442	170.0148
1044.000000	86.517	170.3943
1060.000000	86.587	170.7890
1075.000000	86.658	171.0909
1090.000000	86.732	171.3545
1106.000000	86.811	171.5533
1120.000000	86.889	171.6729
1138.000000	87.000	171.8329
1150.000000	87.066	171.9356
1172.000000	87.167	172.0326
1180.000000	87.206	172.0526
1206.000000	87.324	172.1104
1220.000000	87.370	172.0767
1241.000000	87.437	172.0595
1250.000000	87.471	172.0857
1265.000000	87.530	172.1064
1280.000000	87.584	172.1224
1315.000000	87.688	172.0606
1320.000000	87.700	172.0359
1340.000000	87.751	171.9682
1360.000000	87.804	171.9289
1380.000000	87.853	171.8280
1400.000000	87.902	171.6959
1430.000000	87.983	171.4642
1450.000000	88.035	171.2754
1475.000000	88.051	170.9519
1500.000000	87.986	170.7032
1525.000000	87.921	171.1196
1550.000000	87.929	171.8724
1575.000000	87.998	172.3852
1600.000000	88.071	172.6697
1625.000000	88.138	172.9047
1650.000000	88.210	173.1815
1675.000000	88.276	173.3619
1700.000000	88.336	173.5301
1725.000000	88.393	173.7373
1750.000000	88.450	173.8952
1775.000000	88.510	173.9771
1800.000000	88.568	174.0589
1825.000000	88.625	174.2111
1850.000000	88.686	174.4039
1875.000000	88.744	174.5525
1900.000000	88.802	174.6392
1925.000000	88.868	174.7359
1950.000000	88.936	174.8200
1975.000000	88.996	174.8995
2000.000000	89.051	175.0105
2030.000000	89.121	175.1255
2060.000000	89.195	175.2027
2090.000000	89.267	175.2801
2120.000000	89.342	175.3550
2140.000000	89.391	175.3809
2180.000000	89.492	175.3596
2200.000000	89.545	175.3502
2240.000000	89.648	175.3539
2270.000000	89.719	175.3299
2300.000000	89.790	175.2856
2330.000000	89.862	175.2452
2360.000000	89.934	175.1688
2400.000000	90.032	175.0243
2430.000000	90.102	174.8772
2470.000000	90.189	174.6781
2500.000000	90.253	174.5428
2540.000000	90.339	174.3221
2580.000000	90.412	174.0728
2620.000000	90.486	173.8329
2650.000000	90.544	173.6233
2690.000000	90.617	173.2953
2720.000000	90.668	173.0529
2760.000000	90.725	172.7344
2800.000000	90.779	172.3842
2850.000000	90.835	171.9244
2900.000000	90.882	171.5070
2950.000000	90.920	171.1016
3000.000000	90.953	170.6595
3040.000000	90.974	170.3086
3070.000000	90.987	170.0543
3110.000000	91.000	169.7362
3150.000000	91.009	169.4441
3200.000000	91.012	169.0972
3250.000000	91.005	168.7870
3300.000000	90.991	168.4899
3350.000000	90.969	168.2240
3400.000000	90.945	168.0029
3450.000000	90.926	167.8315
3500.000000	90.906	167.7098
3550.000000	90.879	167.6426
3600.000000	90.849	167.6068
3650.000000	90.818	167.6444
3700.000000	90.784	167.7523
3750.000000	90.745	167.8854
3820.000000	90.693	168.1404
3870.000000	90.649	168.4029
3950.000000	90.570	168.9168
4000.000000	90.518	169.2889
4060.000000	90.458	169.8536
4120.000000	90.406	170.5051
4180.000000	90.357	171.1926
4250.000000	90.305	172.0634
4310.000000	90.260	172.9005
4370.000000	90.212	173.8084
4440.000000	90.158	174.9278
4500.000000	90.118	175.9281
4550.000000	90.093	176.8260
4620.000000	90.065	178.1411
4680.000000	90.048	179.3034
4750.000000	90.046	-179.2778
4820.000000	90.057	-177.8108
4870.000000	90.070	-176.7396
4940.000000	90.095	-175.2299
5000.000000	90.121	-173.9390
5080.000000	90.149	-172.0976
5150.000000	90.202	-170.2235
5220.000000	90.310	-168.3650
5300.000000	90.452	-166.3810
5380.000000	90.606	-164.4389
5450.000000	90.759	-162.7369
5520.000000	90.934	-161.0599
5600.000000	91.165	-159.1901
5700.000000	91.488	-157.0450
5800.000000	91.782	-155.0898
5900.000000	92.102	-152.4327
6000.000000	92.604	-149.8733
6080.000000	93.047	-148.3513
6150.000000	93.451	-147.2230
6220.000000	93.876	-146.2543
6300.000000	94.392	-145.3749
6400.000000	95.083	-144.6951
6500.000000	95.815	-144.6149
6600.000000	96.576	-145.2823
6700.000000	97.346	-146.8224
6800.000000	98.093	-149.3475
6900.000000	98.780	-152.8965
7000.000000	99.352	-157.3657
7100.000000	99.751	-162.4619
7200.000000	99.947	-167.7433
7300.000000	99.947	-172.7035
7400.000000	99.791	-176.9085
7500.000000	99.538	179.8901
7620.000000	99.208	177.4023
7750.000000	98.917	176.0634
7880.000000	98.704	175.5718
8000.000000	98.605	175.2389
8120.000000	98.584	174.4636
8250.000000	98.542	172.8789
8380.000000	98.370	170.9446
8500.000000	98.073	169.6458
8620.000000	97.705	169.3970
8750.000000	97.338	170.4045
8850.000000	97.145	171.8576
9000.000000	97.071	174.5282
9120.000000	97.213	176.6121
9250.000000	97.562	178.3501
9380.000000	98.087	179.0619
9500.000000	98.686	178.3325
9620.000000	99.313	175.7947
9750.000000	99.863	170.6558
9880.000000	100.069	163.6251
10000.000000	99.889	157.2056
10150.000000	99.441	150.5504
10300.000000	98.845	143.8856
10440.000000	97.950	138.5104
10600.000000	96.652	135.1461
10750.000000	95.407	134.5501
10900.000000	94.267	135.7323
11060.000000	93.220	138.2778
11200.000000	92.452	141.2136
11380.000000	91.666	145.5992
11500.000000	91.265	148.7484
11720.000000	90.785	154.6823
11800.000000	90.694	156.8107
12060.000000	90.712	163.1475
12200.000000	90.920	165.8689
12410.000000	91.474	168.2343
12500.000000	91.790	168.2968
12650.000000	92.370	166.5966
12800.000000	92.887	162.1111
13150.000000	92.761	141.9996
13200.000000	92.513	138.8054
13400.000000	90.962	128.1650
13600.000000	88.796	122.6074
13800.000000	86.449	121.8493
14000.000000	84.217	124.4610
14300.000000	81.301	132.1302
14500.000000	79.647	138.7208
14750.000000	77.868	147.9554
15000.000000	76.361	157.9593
15250.000000	75.103	168.3899
15500.000000	74.106	178.9625
15750.000000	73.373	-170.3758
16000.000000	72.854	-159.6878
16250.000000	72.529	-149.1937
16500.000000	72.341	-138.9175
16750.000000	72.395	-128.0595
17000.000000	72.952	-117.5072
17250.000000	74.018	-109.5420
17500.000000	75.421	-105.7695
17750.000000	76.861	-108.0203
18000.000000	77.727	-118.2374
18250.000000	77.338	-133.3340
18500.000000	75.530	-144.8748
18750.000000	72.770	-147.8969
19000.000000	69.745	-143.6903
19250.000000	66.926	-135.1770
19500.000000	64.446	-124.1705
19750.000000	62.341	-112.8821
20000.000000	61.064	-105.9994
